# Time(ns)	MSD
0.00000e+00 -6.99791e-03
1.00000e-01 6.40248e+03
2.00000e-01 8.46864e+03
3.00000e-01 9.87571e+03
4.00000e-01 1.09712e+04
5.00000e-01 1.18537e+04
6.00000e-01 1.25874e+04
7.00000e-01 1.32275e+04
8.00000e-01 1.38065e+04
9.00000e-01 1.43416e+04
1.00000e+00 1.47861e+04
1.10000e+00 1.52059e+04
1.20000e+00 1.56188e+04
1.30000e+00 1.59398e+04
1.40000e+00 1.62775e+04
1.50000e+00 1.65630e+04
1.60000e+00 1.68357e+04
1.70000e+00 1.71109e+04
1.80000e+00 1.73481e+04
1.90000e+00 1.75512e+04
2.00000e+00 1.78359e+04
2.10000e+00 1.79462e+04
2.20000e+00 1.80375e+04
2.30000e+00 1.82106e+04
2.40000e+00 1.84764e+04
2.50000e+00 1.85043e+04
2.60000e+00 1.88044e+04
2.70000e+00 1.90222e+04
2.80000e+00 1.91168e+04
2.90000e+00 1.93211e+04
3.00000e+00 1.93481e+04
3.10000e+00 1.94103e+04
3.20000e+00 1.94708e+04
3.30000e+00 1.94708e+04
3.40000e+00 1.95843e+04
3.50000e+00 1.95556e+04
3.60000e+00 1.97090e+04
3.70000e+00 1.95756e+04
3.80000e+00 1.93512e+04
3.90000e+00 1.95058e+04
4.00000e+00 1.95787e+04
4.10000e+00 1.96501e+04
4.20000e+00 1.95699e+04
4.30000e+00 1.96495e+04
4.40000e+00 1.96868e+04
4.50000e+00 1.97856e+04
4.60000e+00 1.98993e+04
4.70000e+00 2.01749e+04
4.80000e+00 2.02664e+04
4.90000e+00 2.04283e+04
5.00000e+00 2.03717e+04
5.10000e+00 2.03127e+04
5.20000e+00 2.04100e+04
5.30000e+00 2.04537e+04
5.40000e+00 2.04931e+04
5.50000e+00 2.06112e+04
5.60000e+00 2.08724e+04
5.70000e+00 2.09849e+04
5.80000e+00 2.08431e+04
5.90000e+00 2.07849e+04
6.00000e+00 2.08075e+04
6.10000e+00 2.08864e+04
6.20000e+00 2.07632e+04
6.30000e+00 2.10734e+04
6.40000e+00 2.10052e+04
6.50000e+00 2.09912e+04
6.60000e+00 2.10158e+04
6.70000e+00 2.12241e+04
6.80000e+00 2.13034e+04
6.90000e+00 2.12466e+04
7.00000e+00 2.13670e+04
7.10000e+00 2.13965e+04
7.20000e+00 2.13736e+04
7.30000e+00 2.17254e+04
7.40000e+00 2.13193e+04
7.50000e+00 2.14699e+04
7.60000e+00 2.16540e+04
7.70000e+00 2.16888e+04
7.80000e+00 2.21696e+04
7.90000e+00 2.17295e+04
8.00000e+00 2.14722e+04
8.10000e+00 2.16258e+04
8.20000e+00 2.13848e+04
8.30000e+00 2.10894e+04
8.40000e+00 2.13889e+04
8.50000e+00 2.14197e+04
8.60000e+00 2.12688e+04
8.70000e+00 2.11497e+04
8.80000e+00 2.12953e+04
8.90000e+00 2.16047e+04
9.00000e+00 2.18402e+04
9.10000e+00 2.22313e+04
9.20000e+00 2.26576e+04
9.30000e+00 2.26506e+04
9.40000e+00 2.25516e+04
9.50000e+00 2.23752e+04
9.60000e+00 2.27678e+04
9.70000e+00 2.26987e+04
9.80000e+00 2.29364e+04
9.90000e+00 2.31474e+04
1.00000e+01 2.29523e+04
1.01000e+01 2.28918e+04
1.02000e+01 2.35922e+04
1.03000e+01 2.29933e+04
1.04000e+01 2.25514e+04
1.05000e+01 2.27443e+04
1.06000e+01 2.26319e+04
1.07000e+01 2.26634e+04
1.08000e+01 2.22329e+04
1.09000e+01 2.28069e+04
1.10000e+01 2.30252e+04
1.11000e+01 2.43298e+04
1.12000e+01 2.43839e+04
1.13000e+01 2.38575e+04
1.14000e+01 2.34349e+04
1.15000e+01 2.34375e+04
1.16000e+01 2.33802e+04
1.17000e+01 2.26865e+04
1.18000e+01 2.25369e+04
1.19000e+01 2.34591e+04
1.20000e+01 2.37998e+04
1.21000e+01 2.32984e+04
1.22000e+01 2.34338e+04
1.23000e+01 2.38989e+04
1.24000e+01 2.42729e+04
1.25000e+01 2.25918e+04
1.26000e+01 2.29225e+04
1.27000e+01 2.30612e+04
1.28000e+01 2.32169e+04
1.29000e+01 2.30760e+04
1.30000e+01 2.29296e+04
1.31000e+01 2.22078e+04
1.32000e+01 2.28355e+04
1.33000e+01 2.33036e+04
1.34000e+01 2.31230e+04
1.35000e+01 2.37584e+04
1.36000e+01 2.30423e+04
1.37000e+01 2.26438e+04
1.38000e+01 2.31920e+04
1.39000e+01 2.27062e+04
1.40000e+01 2.23087e+04
1.41000e+01 2.30022e+04
1.42000e+01 2.26063e+04
1.43000e+01 2.27237e+04
1.44000e+01 2.15114e+04
1.45000e+01 2.14757e+04
1.46000e+01 2.09912e+04
1.47000e+01 2.13821e+04
1.48000e+01 2.18492e+04
1.49000e+01 2.28439e+04
1.50000e+01 2.24505e+04
1.51000e+01 2.31269e+04
1.52000e+01 2.22764e+04
1.53000e+01 2.23830e+04
1.54000e+01 2.27034e+04
1.55000e+01 2.32071e+04
1.56000e+01 2.36949e+04
1.57000e+01 2.34399e+04
1.58000e+01 2.32582e+04
1.59000e+01 2.39110e+04
1.60000e+01 2.32937e+04
1.61000e+01 2.36354e+04
1.62000e+01 2.26687e+04
1.63000e+01 2.28790e+04
1.64000e+01 2.42554e+04
1.65000e+01 2.45218e+04
1.66000e+01 2.38619e+04
1.67000e+01 2.43071e+04
1.68000e+01 2.50107e+04
1.69000e+01 2.49728e+04
1.70000e+01 2.40058e+04
1.71000e+01 2.40718e+04
1.72000e+01 2.54549e+04
1.73000e+01 2.32676e+04
1.74000e+01 2.25923e+04
1.75000e+01 2.38497e+04
1.76000e+01 2.43981e+04
1.77000e+01 2.38339e+04
1.78000e+01 2.53043e+04
1.79000e+01 2.37121e+04
1.80000e+01 2.24840e+04
1.81000e+01 2.17062e+04
1.82000e+01 2.12273e+04
1.83000e+01 2.13392e+04
1.84000e+01 2.16141e+04
1.85000e+01 2.10548e+04
1.86000e+01 2.17910e+04
1.87000e+01 2.15030e+04
1.88000e+01 2.19272e+04
1.89000e+01 2.06751e+04
1.90000e+01 2.06546e+04
1.91000e+01 2.13408e+04
1.92000e+01 2.19847e+04
1.93000e+01 1.79676e+04
1.94000e+01 1.76706e+04
1.95000e+01 1.71447e+04
1.96000e+01 1.60601e+04
1.97000e+01 1.66274e+04
1.98000e+01 1.79253e+04
1.99000e+01 1.78661e+04
2.00000e+01 1.91443e+04
2.01000e+01 1.88838e+04
2.02000e+01 1.87766e+04
2.03000e+01 1.89678e+04
2.04000e+01 1.89200e+04
2.05000e+01 1.91289e+04
2.06000e+01 1.96094e+04
2.07000e+01 1.99007e+04
2.08000e+01 2.08527e+04
2.09000e+01 2.06427e+04
2.10000e+01 2.15718e+04
2.11000e+01 2.23651e+04
2.12000e+01 2.40327e+04
2.13000e+01 2.53670e+04
2.14000e+01 2.61442e+04
2.15000e+01 2.76277e+04
2.16000e+01 2.21999e+04
2.17000e+01 2.34756e+04
2.18000e+01 2.41169e+04
2.19000e+01 2.52124e+04
2.20000e+01 2.66637e+04
2.21000e+01 2.48209e+04
2.22000e+01 2.31360e+04
2.23000e+01 1.85527e+04
2.24000e+01 1.84423e+04
2.25000e+01 1.78825e+04
2.26000e+01 1.70282e+04
2.27000e+01 1.64268e+04
2.28000e+01 1.61316e+04
2.29000e+01 1.62749e+04
2.30000e+01 1.63370e+04
2.31000e+01 1.66240e+04
2.32000e+01 1.71179e+04
2.33000e+01 1.99013e+04
2.34000e+01 1.70815e+04
2.35000e+01 1.63648e+04
2.36000e+01 1.59440e+04
2.37000e+01 1.74180e+04
2.38000e+01 1.78070e+04
2.39000e+01 1.74479e+04
2.40000e+01 1.72836e+04
2.41000e+01 1.66352e+04
2.42000e+01 1.68942e+04
2.43000e+01 1.78944e+04
2.44000e+01 1.78829e+04
2.45000e+01 1.80009e+04
2.46000e+01 1.86087e+04
2.47000e+01 1.83613e+04
2.48000e+01 1.82170e+04
2.49000e+01 1.78626e+04
2.50000e+01 1.74475e+04
2.51000e+01 1.73031e+04
2.52000e+01 1.70631e+04
2.53000e+01 1.71823e+04
2.54000e+01 1.75277e+04
2.55000e+01 1.79744e+04
2.56000e+01 1.74076e+04
2.57000e+01 1.70635e+04
2.58000e+01 1.73257e+04
2.59000e+01 1.85922e+04
2.60000e+01 1.85473e+04
2.61000e+01 1.79199e+04
2.62000e+01 1.81480e+04
2.63000e+01 1.95436e+04
2.64000e+01 2.08723e+04
2.65000e+01 2.36792e+04
2.66000e+01 2.10595e+04
2.67000e+01 2.51652e+04
2.68000e+01 1.85143e+04
2.69000e+01 1.81443e+04
2.70000e+01 1.88888e+04
2.71000e+01 1.89703e+04
2.72000e+01 1.95919e+04
2.73000e+01 2.02472e+04
2.74000e+01 2.00588e+04
2.75000e+01 2.17159e+04
2.76000e+01 2.55259e+04
2.77000e+01 1.40367e+04
2.78000e+01 1.40274e+04
2.79000e+01 1.38019e+04
2.80000e+01 1.33400e+04
2.81000e+01 1.37098e+04
2.82000e+01 1.35846e+04
2.83000e+01 1.28143e+04
2.84000e+01 1.23599e+04
2.85000e+01 1.24243e+04
2.86000e+01 1.26977e+04
2.87000e+01 1.24597e+04
2.88000e+01 1.29429e+04
2.89000e+01 1.39908e+04
2.90000e+01 1.43451e+04
2.91000e+01 1.15033e+04
2.92000e+01 1.77448e+04
2.93000e+01 1.76866e+04
2.94000e+01 1.66361e+04
2.95000e+01 1.63057e+04
2.96000e+01 1.66179e+04
2.97000e+01 1.65322e+04
2.98000e+01 1.71776e+04
2.99000e+01 1.66566e+04
3.00000e+01 1.59823e+04
3.01000e+01 1.57239e+04
3.02000e+01 1.66905e+04
3.03000e+01 1.74748e+04
3.04000e+01 1.79019e+04
3.05000e+01 1.76514e+04
3.06000e+01 1.67950e+04
3.07000e+01 1.67218e+04
3.08000e+01 1.71397e+04
3.09000e+01 1.73928e+04
3.10000e+01 1.70911e+04
3.11000e+01 1.72410e+04
3.12000e+01 1.73402e+04
3.13000e+01 1.74533e+04
3.14000e+01 1.83759e+04
3.15000e+01 1.80826e+04
3.16000e+01 1.82605e+04
3.17000e+01 1.90881e+04
3.18000e+01 2.00286e+04
3.19000e+01 2.05820e+04
3.20000e+01 2.07144e+04
3.21000e+01 1.91185e+04
3.22000e+01 1.86236e+04
3.23000e+01 1.79870e+04
3.24000e+01 1.69664e+04
3.25000e+01 1.88949e+04
3.26000e+01 1.97648e+04
3.27000e+01 1.90126e+04
3.28000e+01 1.92283e+04
3.29000e+01 1.81353e+04
3.30000e+01 1.78881e+04
3.31000e+01 1.70043e+04
3.32000e+01 1.69622e+04
3.33000e+01 1.80614e+04
3.34000e+01 1.66058e+04
3.35000e+01 1.73809e+04
3.36000e+01 1.75828e+04
3.37000e+01 1.78206e+04
3.38000e+01 1.72387e+04
3.39000e+01 1.67695e+04
3.40000e+01 1.71292e+04
3.41000e+01 1.61570e+04
3.42000e+01 1.62187e+04
3.43000e+01 1.79929e+04
3.44000e+01 1.94632e+04
3.45000e+01 1.90928e+04
3.46000e+01 1.91442e+04
3.47000e+01 2.03230e+04
3.48000e+01 2.02550e+04
3.49000e+01 2.06265e+04
3.50000e+01 1.97867e+04
3.51000e+01 1.95647e+04
3.52000e+01 2.09696e+04
3.53000e+01 2.16902e+04
3.54000e+01 2.29752e+04
3.55000e+01 2.20473e+04
3.56000e+01 2.01440e+04
3.57000e+01 1.99398e+04
3.58000e+01 1.93408e+04
3.59000e+01 1.91749e+04
3.60000e+01 1.85673e+04
3.61000e+01 1.91586e+04
3.62000e+01 1.76687e+04
3.63000e+01 1.54434e+04
3.64000e+01 1.70472e+04
3.65000e+01 1.65083e+04
3.66000e+01 1.49877e+04
3.67000e+01 1.46168e+04
3.68000e+01 1.30029e+04
3.69000e+01 1.31858e+04
3.70000e+01 1.29880e+04
3.71000e+01 1.09726e+04
3.72000e+01 1.55892e+04
3.73000e+01 1.61302e+04
3.74000e+01 1.41300e+04
3.75000e+01 1.42841e+04
3.76000e+01 1.06547e+04
3.77000e+01 1.24252e+04
3.78000e+01 1.30967e+04
3.79000e+01 1.16194e+04
3.80000e+01 9.18081e+03
3.81000e+01 0.00000e+00
3.82000e+01 0.00000e+00
3.83000e+01 0.00000e+00
3.84000e+01 0.00000e+00
3.85000e+01 0.00000e+00
3.86000e+01 0.00000e+00
3.87000e+01 0.00000e+00
3.88000e+01 0.00000e+00
3.89000e+01 0.00000e+00
3.90000e+01 0.00000e+00
3.91000e+01 0.00000e+00
3.92000e+01 0.00000e+00
3.93000e+01 0.00000e+00
3.94000e+01 0.00000e+00
3.95000e+01 0.00000e+00
3.96000e+01 0.00000e+00
3.97000e+01 0.00000e+00
3.98000e+01 0.00000e+00
3.99000e+01 0.00000e+00
4.00000e+01 0.00000e+00
4.01000e+01 0.00000e+00
4.02000e+01 0.00000e+00
4.03000e+01 0.00000e+00
4.04000e+01 0.00000e+00
4.05000e+01 0.00000e+00
4.06000e+01 0.00000e+00
4.07000e+01 0.00000e+00
4.08000e+01 0.00000e+00
4.09000e+01 0.00000e+00
4.10000e+01 0.00000e+00
4.11000e+01 0.00000e+00
4.12000e+01 0.00000e+00
4.13000e+01 0.00000e+00
4.14000e+01 0.00000e+00
4.15000e+01 0.00000e+00
4.16000e+01 0.00000e+00
4.17000e+01 0.00000e+00
4.18000e+01 0.00000e+00
4.19000e+01 0.00000e+00
4.20000e+01 0.00000e+00
4.21000e+01 0.00000e+00
4.22000e+01 0.00000e+00
4.23000e+01 0.00000e+00
4.24000e+01 0.00000e+00
4.25000e+01 0.00000e+00
4.26000e+01 0.00000e+00
4.27000e+01 0.00000e+00
4.28000e+01 0.00000e+00
4.29000e+01 0.00000e+00
4.30000e+01 0.00000e+00
4.31000e+01 0.00000e+00
4.32000e+01 0.00000e+00
4.33000e+01 0.00000e+00
4.34000e+01 0.00000e+00
4.35000e+01 0.00000e+00
4.36000e+01 0.00000e+00
4.37000e+01 0.00000e+00
4.38000e+01 0.00000e+00
4.39000e+01 0.00000e+00
4.40000e+01 0.00000e+00
4.41000e+01 0.00000e+00
4.42000e+01 0.00000e+00
4.43000e+01 0.00000e+00
4.44000e+01 0.00000e+00
4.45000e+01 0.00000e+00
4.46000e+01 0.00000e+00
4.47000e+01 0.00000e+00
4.48000e+01 0.00000e+00
4.49000e+01 0.00000e+00
4.50000e+01 0.00000e+00
4.51000e+01 0.00000e+00
4.52000e+01 0.00000e+00
4.53000e+01 0.00000e+00
4.54000e+01 0.00000e+00
4.55000e+01 0.00000e+00
4.56000e+01 0.00000e+00
4.57000e+01 0.00000e+00
4.58000e+01 0.00000e+00
4.59000e+01 0.00000e+00
4.60000e+01 0.00000e+00
4.61000e+01 0.00000e+00
4.62000e+01 0.00000e+00
4.63000e+01 0.00000e+00
4.64000e+01 0.00000e+00
4.65000e+01 0.00000e+00
4.66000e+01 0.00000e+00
4.67000e+01 0.00000e+00
4.68000e+01 0.00000e+00
4.69000e+01 0.00000e+00
4.70000e+01 0.00000e+00
4.71000e+01 0.00000e+00
4.72000e+01 0.00000e+00
4.73000e+01 0.00000e+00
4.74000e+01 0.00000e+00
4.75000e+01 0.00000e+00
4.76000e+01 0.00000e+00
4.77000e+01 0.00000e+00
4.78000e+01 0.00000e+00
4.79000e+01 0.00000e+00
4.80000e+01 0.00000e+00
4.81000e+01 0.00000e+00
4.82000e+01 0.00000e+00
4.83000e+01 0.00000e+00
4.84000e+01 0.00000e+00
4.85000e+01 0.00000e+00
4.86000e+01 0.00000e+00
4.87000e+01 0.00000e+00
4.88000e+01 0.00000e+00
4.89000e+01 0.00000e+00
4.90000e+01 0.00000e+00
4.91000e+01 0.00000e+00
4.92000e+01 0.00000e+00
4.93000e+01 0.00000e+00
4.94000e+01 0.00000e+00
4.95000e+01 0.00000e+00
4.96000e+01 0.00000e+00
4.97000e+01 0.00000e+00
4.98000e+01 0.00000e+00
4.99000e+01 0.00000e+00
5.00000e+01 0.00000e+00
5.01000e+01 0.00000e+00
5.02000e+01 0.00000e+00
5.03000e+01 0.00000e+00
5.04000e+01 0.00000e+00
5.05000e+01 0.00000e+00
5.06000e+01 0.00000e+00
5.07000e+01 0.00000e+00
5.08000e+01 0.00000e+00
5.09000e+01 0.00000e+00
5.10000e+01 0.00000e+00
5.11000e+01 0.00000e+00
5.12000e+01 0.00000e+00
5.13000e+01 0.00000e+00
5.14000e+01 0.00000e+00
5.15000e+01 0.00000e+00
5.16000e+01 0.00000e+00
5.17000e+01 0.00000e+00
5.18000e+01 0.00000e+00
5.19000e+01 0.00000e+00
5.20000e+01 0.00000e+00
5.21000e+01 0.00000e+00
5.22000e+01 0.00000e+00
5.23000e+01 0.00000e+00
5.24000e+01 0.00000e+00
5.25000e+01 0.00000e+00
5.26000e+01 0.00000e+00
5.27000e+01 0.00000e+00
5.28000e+01 0.00000e+00
5.29000e+01 0.00000e+00
5.30000e+01 0.00000e+00
5.31000e+01 0.00000e+00
5.32000e+01 0.00000e+00
5.33000e+01 0.00000e+00
5.34000e+01 0.00000e+00
5.35000e+01 0.00000e+00
5.36000e+01 0.00000e+00
5.37000e+01 0.00000e+00
5.38000e+01 0.00000e+00
5.39000e+01 0.00000e+00
5.40000e+01 0.00000e+00
5.41000e+01 0.00000e+00
5.42000e+01 0.00000e+00
5.43000e+01 0.00000e+00
5.44000e+01 0.00000e+00
5.45000e+01 0.00000e+00
5.46000e+01 0.00000e+00
5.47000e+01 0.00000e+00
5.48000e+01 0.00000e+00
5.49000e+01 0.00000e+00
5.50000e+01 0.00000e+00
5.51000e+01 0.00000e+00
5.52000e+01 0.00000e+00
5.53000e+01 0.00000e+00
5.54000e+01 0.00000e+00
5.55000e+01 0.00000e+00
5.56000e+01 0.00000e+00
5.57000e+01 0.00000e+00
5.58000e+01 0.00000e+00
5.59000e+01 0.00000e+00
5.60000e+01 0.00000e+00
5.61000e+01 0.00000e+00
5.62000e+01 0.00000e+00
5.63000e+01 0.00000e+00
5.64000e+01 0.00000e+00
5.65000e+01 0.00000e+00
5.66000e+01 0.00000e+00
5.67000e+01 0.00000e+00
5.68000e+01 0.00000e+00
5.69000e+01 0.00000e+00
5.70000e+01 0.00000e+00
5.71000e+01 0.00000e+00
5.72000e+01 0.00000e+00
5.73000e+01 0.00000e+00
5.74000e+01 0.00000e+00
5.75000e+01 0.00000e+00
5.76000e+01 0.00000e+00
5.77000e+01 0.00000e+00
5.78000e+01 0.00000e+00
5.79000e+01 0.00000e+00
5.80000e+01 0.00000e+00
5.81000e+01 0.00000e+00
5.82000e+01 0.00000e+00
5.83000e+01 0.00000e+00
5.84000e+01 0.00000e+00
5.85000e+01 0.00000e+00
5.86000e+01 0.00000e+00
5.87000e+01 0.00000e+00
5.88000e+01 0.00000e+00
5.89000e+01 0.00000e+00
5.90000e+01 0.00000e+00
5.91000e+01 0.00000e+00
5.92000e+01 0.00000e+00
5.93000e+01 0.00000e+00
5.94000e+01 0.00000e+00
5.95000e+01 0.00000e+00
5.96000e+01 0.00000e+00
5.97000e+01 0.00000e+00
5.98000e+01 0.00000e+00
5.99000e+01 0.00000e+00
6.00000e+01 0.00000e+00
6.01000e+01 0.00000e+00
6.02000e+01 0.00000e+00
6.03000e+01 0.00000e+00
6.04000e+01 0.00000e+00
6.05000e+01 0.00000e+00
6.06000e+01 0.00000e+00
6.07000e+01 0.00000e+00
6.08000e+01 0.00000e+00
6.09000e+01 0.00000e+00
6.10000e+01 0.00000e+00
6.11000e+01 0.00000e+00
6.12000e+01 0.00000e+00
6.13000e+01 0.00000e+00
6.14000e+01 0.00000e+00
6.15000e+01 0.00000e+00
6.16000e+01 0.00000e+00
6.17000e+01 0.00000e+00
6.18000e+01 0.00000e+00
6.19000e+01 0.00000e+00
6.20000e+01 0.00000e+00
6.21000e+01 0.00000e+00
6.22000e+01 0.00000e+00
6.23000e+01 0.00000e+00
6.24000e+01 0.00000e+00
6.25000e+01 0.00000e+00
6.26000e+01 0.00000e+00
6.27000e+01 0.00000e+00
6.28000e+01 0.00000e+00
6.29000e+01 0.00000e+00
6.30000e+01 0.00000e+00
6.31000e+01 0.00000e+00
6.32000e+01 0.00000e+00
6.33000e+01 0.00000e+00
6.34000e+01 0.00000e+00
6.35000e+01 0.00000e+00
6.36000e+01 0.00000e+00
6.37000e+01 0.00000e+00
6.38000e+01 0.00000e+00
6.39000e+01 0.00000e+00
6.40000e+01 0.00000e+00
6.41000e+01 0.00000e+00
6.42000e+01 0.00000e+00
6.43000e+01 0.00000e+00
6.44000e+01 0.00000e+00
6.45000e+01 0.00000e+00
6.46000e+01 0.00000e+00
6.47000e+01 0.00000e+00
6.48000e+01 0.00000e+00
6.49000e+01 0.00000e+00
6.50000e+01 0.00000e+00
6.51000e+01 0.00000e+00
6.52000e+01 0.00000e+00
6.53000e+01 0.00000e+00
6.54000e+01 0.00000e+00
6.55000e+01 0.00000e+00
6.56000e+01 0.00000e+00
6.57000e+01 0.00000e+00
6.58000e+01 0.00000e+00
6.59000e+01 0.00000e+00
6.60000e+01 0.00000e+00
6.61000e+01 0.00000e+00
6.62000e+01 0.00000e+00
6.63000e+01 0.00000e+00
6.64000e+01 0.00000e+00
6.65000e+01 0.00000e+00
6.66000e+01 0.00000e+00
6.67000e+01 0.00000e+00
6.68000e+01 0.00000e+00
6.69000e+01 0.00000e+00
6.70000e+01 0.00000e+00
6.71000e+01 0.00000e+00
6.72000e+01 0.00000e+00
6.73000e+01 0.00000e+00
6.74000e+01 0.00000e+00
6.75000e+01 0.00000e+00
6.76000e+01 0.00000e+00
6.77000e+01 0.00000e+00
6.78000e+01 0.00000e+00
6.79000e+01 0.00000e+00
6.80000e+01 0.00000e+00
6.81000e+01 0.00000e+00
6.82000e+01 0.00000e+00
6.83000e+01 0.00000e+00
6.84000e+01 0.00000e+00
6.85000e+01 0.00000e+00
6.86000e+01 0.00000e+00
6.87000e+01 0.00000e+00
6.88000e+01 0.00000e+00
6.89000e+01 0.00000e+00
6.90000e+01 0.00000e+00
6.91000e+01 0.00000e+00
6.92000e+01 0.00000e+00
6.93000e+01 0.00000e+00
6.94000e+01 0.00000e+00
6.95000e+01 0.00000e+00
6.96000e+01 0.00000e+00
6.97000e+01 0.00000e+00
6.98000e+01 0.00000e+00
6.99000e+01 0.00000e+00
7.00000e+01 0.00000e+00
7.01000e+01 0.00000e+00
7.02000e+01 0.00000e+00
7.03000e+01 0.00000e+00
7.04000e+01 0.00000e+00
7.05000e+01 0.00000e+00
7.06000e+01 0.00000e+00
7.07000e+01 0.00000e+00
7.08000e+01 0.00000e+00
7.09000e+01 0.00000e+00
7.10000e+01 0.00000e+00
7.11000e+01 0.00000e+00
7.12000e+01 0.00000e+00
7.13000e+01 0.00000e+00
7.14000e+01 0.00000e+00
7.15000e+01 0.00000e+00
7.16000e+01 0.00000e+00
7.17000e+01 0.00000e+00
7.18000e+01 0.00000e+00
7.19000e+01 0.00000e+00
7.20000e+01 0.00000e+00
7.21000e+01 0.00000e+00
7.22000e+01 0.00000e+00
7.23000e+01 0.00000e+00
7.24000e+01 0.00000e+00
7.25000e+01 0.00000e+00
7.26000e+01 0.00000e+00
7.27000e+01 0.00000e+00
7.28000e+01 0.00000e+00
7.29000e+01 0.00000e+00
7.30000e+01 0.00000e+00
7.31000e+01 0.00000e+00
7.32000e+01 0.00000e+00
7.33000e+01 0.00000e+00
7.34000e+01 0.00000e+00
7.35000e+01 0.00000e+00
7.36000e+01 0.00000e+00
7.37000e+01 0.00000e+00
7.38000e+01 0.00000e+00
7.39000e+01 0.00000e+00
7.40000e+01 0.00000e+00
7.41000e+01 0.00000e+00
7.42000e+01 0.00000e+00
7.43000e+01 0.00000e+00
7.44000e+01 0.00000e+00
7.45000e+01 0.00000e+00
7.46000e+01 0.00000e+00
7.47000e+01 0.00000e+00
7.48000e+01 0.00000e+00
7.49000e+01 0.00000e+00
7.50000e+01 0.00000e+00
7.51000e+01 0.00000e+00
7.52000e+01 0.00000e+00
7.53000e+01 0.00000e+00
7.54000e+01 0.00000e+00
7.55000e+01 0.00000e+00
7.56000e+01 0.00000e+00
7.57000e+01 0.00000e+00
7.58000e+01 0.00000e+00
7.59000e+01 0.00000e+00
7.60000e+01 0.00000e+00
7.61000e+01 0.00000e+00
7.62000e+01 0.00000e+00
7.63000e+01 0.00000e+00
7.64000e+01 0.00000e+00
7.65000e+01 0.00000e+00
7.66000e+01 0.00000e+00
7.67000e+01 0.00000e+00
7.68000e+01 0.00000e+00
7.69000e+01 0.00000e+00
7.70000e+01 0.00000e+00
7.71000e+01 0.00000e+00
7.72000e+01 0.00000e+00
7.73000e+01 0.00000e+00
7.74000e+01 0.00000e+00
7.75000e+01 0.00000e+00
7.76000e+01 0.00000e+00
7.77000e+01 0.00000e+00
7.78000e+01 0.00000e+00
7.79000e+01 0.00000e+00
7.80000e+01 0.00000e+00
7.81000e+01 0.00000e+00
7.82000e+01 0.00000e+00
7.83000e+01 0.00000e+00
7.84000e+01 0.00000e+00
7.85000e+01 0.00000e+00
7.86000e+01 0.00000e+00
7.87000e+01 0.00000e+00
7.88000e+01 0.00000e+00
7.89000e+01 0.00000e+00
7.90000e+01 0.00000e+00
7.91000e+01 0.00000e+00
7.92000e+01 0.00000e+00
7.93000e+01 0.00000e+00
7.94000e+01 0.00000e+00
7.95000e+01 0.00000e+00
7.96000e+01 0.00000e+00
7.97000e+01 0.00000e+00
7.98000e+01 0.00000e+00
7.99000e+01 0.00000e+00
8.00000e+01 0.00000e+00
8.01000e+01 0.00000e+00
8.02000e+01 0.00000e+00
8.03000e+01 0.00000e+00
8.04000e+01 0.00000e+00
8.05000e+01 0.00000e+00
8.06000e+01 0.00000e+00
8.07000e+01 0.00000e+00
8.08000e+01 0.00000e+00
8.09000e+01 0.00000e+00
8.10000e+01 0.00000e+00
8.11000e+01 0.00000e+00
8.12000e+01 0.00000e+00
8.13000e+01 0.00000e+00
8.14000e+01 0.00000e+00
8.15000e+01 0.00000e+00
8.16000e+01 0.00000e+00
8.17000e+01 0.00000e+00
8.18000e+01 0.00000e+00
8.19000e+01 0.00000e+00
8.20000e+01 0.00000e+00
8.21000e+01 0.00000e+00
8.22000e+01 0.00000e+00
8.23000e+01 0.00000e+00
8.24000e+01 0.00000e+00
8.25000e+01 0.00000e+00
8.26000e+01 0.00000e+00
8.27000e+01 0.00000e+00
8.28000e+01 0.00000e+00
8.29000e+01 0.00000e+00
8.30000e+01 0.00000e+00
8.31000e+01 0.00000e+00
